# AreTomo Alignment / Priims bprmMn
# RawSize = 4096 4096 55
# NumPatches = 0
# DarkFrame =    52   53    54.39
# DarkFrame =    53   54    56.39
# DarkFrame =    54   55    58.39
# AlphaOffset =    14.40
# BetaOffset =     0.00
# Thickness = 1270
# SEC     ROT         GMAG       TX          TY      SMEAN     SFIT    SCALE     BASE     TILT
    1    96.7605    1.00000     18.267   -199.003     1.00     1.00     1.00     0.00    -49.43
    2    97.0095    1.00000     22.146   -186.457     1.00     1.00     1.00     0.00    -47.58
    3    96.8159    1.00000     11.663   -150.269     1.00     1.00     1.00     0.00    -45.53
    4    96.8059    1.00000     19.888   -167.365     1.00     1.00     1.00     0.00    -43.56
    5    96.9174    1.00000     15.365   -148.964     1.00     1.00     1.00     0.00    -41.49
    6    96.7581    1.00000     20.416   -152.627     1.00     1.00     1.00     0.00    -39.66
    7    96.7628    1.00000     13.234   -135.513     1.00     1.00     1.00     0.00    -37.65
    8    96.8239    1.00000     24.036   -146.469     1.00     1.00     1.00     0.00    -35.53
    9    96.7403    1.00000     12.490   -128.302     1.00     1.00     1.00     0.00    -33.61
   10    96.7513    1.00000     25.345   -143.428     1.00     1.00     1.00     0.00    -31.56
   11    96.8012    1.00000      8.612   -127.176     1.00     1.00     1.00     0.00    -29.62
   12    96.8061    1.00000      8.013    -31.483     1.00     1.00     1.00     0.00    -27.59
   13    96.7899    1.00000      1.956    -21.434     1.00     1.00     1.00     0.00    -25.58
   14    96.7987    1.00000     11.029    -23.564     1.00     1.00     1.00     0.00    -23.56
   15    96.8005    1.00000      3.820      3.137     1.00     1.00     1.00     0.00    -21.60
   16    96.8082    1.00000      8.192    -19.827     1.00     1.00     1.00     0.00    -19.60
   17    96.7930    1.00000      3.938    -15.883     1.00     1.00     1.00     0.00    -17.62
   18    96.7868    1.00000      8.250    -25.059     1.00     1.00     1.00     0.00    -15.63
   19    96.7803    1.00000      4.443    -10.866     1.00     1.00     1.00     0.00    -13.60
   20    96.7895    1.00000      3.847    -22.825     1.00     1.00     1.00     0.00    -11.59
   21    96.7863    1.00000      4.111      1.963     1.00     1.00     1.00     0.00     -9.59
   22    96.7888    1.00000      1.679    -24.125     1.00     1.00     1.00     0.00     -7.58
   23    96.7858    1.00000      2.142      4.435     1.00     1.00     1.00     0.00     -5.59
   24    96.7820    1.00000      2.442     -3.615     1.00     1.00     1.00     0.00     -3.59
   25    96.7792    1.00000      4.354    -12.493     1.00     1.00     1.00     0.00     -1.60
   26    96.7804    1.00000      0.110      0.104     1.00     1.00     1.00     0.00      0.40
   27    96.7782    1.00000     -7.250      9.008     1.00     1.00     1.00     0.00      2.40
   28    96.7775    1.00000      2.688     12.158     1.00     1.00     1.00     0.00      4.40
   29    96.7760    1.00000     -3.042     20.898     1.00     1.00     1.00     0.00      6.40
   30    96.7745    1.00000      2.266     33.987     1.00     1.00     1.00     0.00      8.41
   31    96.7741    1.00000      2.728      7.747     1.00     1.00     1.00     0.00     10.39
   32    96.7710    1.00000      3.394     37.561     1.00     1.00     1.00     0.00     12.40
   33    96.7701    1.00000      2.267      7.140     1.00     1.00     1.00     0.00     14.40
   34    96.7716    1.00000      6.598     43.965     1.00     1.00     1.00     0.00     16.42
   35    96.7672    1.00000     -1.521     13.081     1.00     1.00     1.00     0.00     18.41
   36    96.7571    1.00000      6.752     47.226     1.00     1.00     1.00     0.00     20.40
   37    96.7789    1.00000     -7.263      4.714     1.00     1.00     1.00     0.00     22.40
   38    96.7665    1.00000      5.223     40.911     1.00     1.00     1.00     0.00     24.37
   39    96.7811    1.00000    -11.370     17.387     1.00     1.00     1.00     0.00     26.37
   40    96.7729    1.00000      3.117     59.464     1.00     1.00     1.00     0.00     28.42
   41    96.7925    1.00000    -17.918     24.368     1.00     1.00     1.00     0.00     30.34
   42    96.7634    1.00000      5.145     67.854     1.00     1.00     1.00     0.00     32.40
   43    96.7372    1.00000    -22.297     47.357     1.00     1.00     1.00     0.00     34.33
   44    96.7604    1.00000      4.594     86.694     1.00     1.00     1.00     0.00     36.25
   45    96.7340    1.00000    -24.324     82.218     1.00     1.00     1.00     0.00     38.46
   46    96.7399    1.00000      2.234    116.237     1.00     1.00     1.00     0.00     40.42
   47    96.6635    1.00000    -42.429    100.064     1.00     1.00     1.00     0.00     42.38
   48    96.6872    1.00000      9.197    156.647     1.00     1.00     1.00     0.00     44.21
   49    97.0285    1.00000    -36.695    133.700     1.00     1.00     1.00     0.00     46.30
   50    96.6913    1.00000     -1.940    175.945     1.00     1.00     1.00     0.00     48.29
   51    96.8162    1.00000    -43.163    172.702     1.00     1.00     1.00     0.00     50.39
   52    96.9752    1.00000    -12.264    197.938     1.00     1.00     1.00     0.00     52.54
