# AreTomo Alignment / Priims bprmMn
# RawSize = 4096 4096 55
# NumPatches = 0
# DarkFrame =     0    1   -51.60
# DarkFrame =     1    2   -49.60
# DarkFrame =     2    3   -47.60
# DarkFrame =     3    4   -45.60
# DarkFrame =     4    5   -43.60
# DarkFrame =     5    6   -41.60
# DarkFrame =     6    7   -39.60
# DarkFrame =     7    8   -37.61
# DarkFrame =     8    9   -35.61
# DarkFrame =     9   10   -33.61
# DarkFrame =    10   11   -31.61
# DarkFrame =    50   51    48.40
# DarkFrame =    51   52    50.39
# DarkFrame =    52   53    52.39
# DarkFrame =    53   54    54.39
# DarkFrame =    54   55    56.39
# AlphaOffset =    12.40
# BetaOffset =     0.00
# Thickness = 1590
# SEC     ROT         GMAG       TX          TY      SMEAN     SFIT    SCALE     BASE     TILT
   12    96.0460    1.00000   -156.238   -166.712     1.00     1.00     1.00     0.00    -29.80
   13    95.9032    1.00000   -166.554   -145.358     1.00     1.00     1.00     0.00    -27.67
   14    95.9950    1.00000   -154.927   -163.807     1.00     1.00     1.00     0.00    -25.69
   15    95.9618    1.00000   -160.756   -145.106     1.00     1.00     1.00     0.00    -23.75
   16    95.9881    1.00000   -156.413   -163.583     1.00     1.00     1.00     0.00    -21.64
   17    95.9645    1.00000   -158.996   -142.999     1.00     1.00     1.00     0.00    -19.65
   18    95.9327    1.00000   -158.271   -157.390     1.00     1.00     1.00     0.00    -17.62
   19    95.9434    1.00000   -158.963   -139.967     1.00     1.00     1.00     0.00    -15.71
   20    95.9470    1.00000   -156.981   -164.565     1.00     1.00     1.00     0.00    -13.65
   21    95.9576    1.00000   -155.259   -147.841     1.00     1.00     1.00     0.00    -11.58
   22    95.9575    1.00000   -159.910   -165.592     1.00     1.00     1.00     0.00     -9.60
   23    95.9702    1.00000   -154.687   -150.730     1.00     1.00     1.00     0.00     -7.60
   24    95.9715    1.00000   -166.069    -98.944     1.00     1.00     1.00     0.00     -5.56
   25    95.9681    1.00000   -160.649   -111.918     1.00     1.00     1.00     0.00     -3.62
   26    95.9710    1.00000   -175.753   -154.669     1.00     1.00     1.00     0.00     -1.62
   27    95.9669    1.00000     -0.003      0.010     1.00     1.00     1.00     0.00      0.39
   28    95.9654    1.00000   -164.134    -81.428     1.00     1.00     1.00     0.00      2.40
   29    95.9625    1.00000      1.432     -0.373     1.00     1.00     1.00     0.00      4.40
   30    95.9678    1.00000   -162.167   -141.511     1.00     1.00     1.00     0.00      6.41
   31    95.9633    1.00000   -163.326    -92.684     1.00     1.00     1.00     0.00      8.42
   32    95.9631    1.00000   -156.735    -73.407     1.00     1.00     1.00     0.00     10.40
   33    95.9559    1.00000   -162.733    -84.356     1.00     1.00     1.00     0.00     12.45
   34    95.9699    1.00000   -158.671    -60.549     1.00     1.00     1.00     0.00     14.42
   35    95.9607    1.00000   -167.958    -81.292     1.00     1.00     1.00     0.00     16.51
   36    95.9551    1.00000   -157.844    -51.785     1.00     1.00     1.00     0.00     18.40
   37    95.9536    1.00000   -170.862    -76.443     1.00     1.00     1.00     0.00     20.38
   38    95.9999    1.00000   -158.941    -47.129     1.00     1.00     1.00     0.00     22.43
   39    95.9803    1.00000   -174.271    -75.295     1.00     1.00     1.00     0.00     24.36
   40    95.9796    1.00000   -159.486    -36.768     1.00     1.00     1.00     0.00     26.34
   41    95.9857    1.00000   -178.868    -61.059     1.00     1.00     1.00     0.00     28.28
   42    96.0223    1.00000   -161.509    -15.449     1.00     1.00     1.00     0.00     30.37
   43    96.0858    1.00000   -179.196    -46.790     1.00     1.00     1.00     0.00     32.53
   44    95.9839    1.00000   -158.714    -12.225     1.00     1.00     1.00     0.00     34.46
   45    95.9297    1.00000   -180.487    -35.587     1.00     1.00     1.00     0.00     36.42
   46    96.0116    1.00000   -157.240      2.522     1.00     1.00     1.00     0.00     38.37
   47    95.9704    1.00000   -182.578    -33.533     1.00     1.00     1.00     0.00     40.48
   48    96.0091    1.00000   -158.028     10.530     1.00     1.00     1.00     0.00     42.48
   49    95.9627    1.00000   -177.039    -29.492     1.00     1.00     1.00     0.00     44.24
   50    96.0608    1.00000   -157.938     10.116     1.00     1.00     1.00     0.00     46.29
