# AreTomo Alignment / Priims bprmMn
# RawSize = 4096 4096 55
# NumPatches = 0
# AlphaOffset =    12.40
# BetaOffset =     0.00
# Thickness = 1480
# SEC     ROT         GMAG       TX          TY      SMEAN     SFIT    SCALE     BASE     TILT
    1    95.9322    1.00000    -38.289   -621.635     1.00     1.00     1.00     0.00    -51.60
    2    95.9028    1.00000    -64.464   -496.681     1.00     1.00     1.00     0.00    -49.55
    3    95.7333    1.00000      0.463     -1.179     1.00     1.00     1.00     0.00    -47.85
    4    96.0604    1.00000      4.396     14.273     1.00     1.00     1.00     0.00    -45.60
    5    96.1208    1.00000      6.887    -17.941     1.00     1.00     1.00     0.00    -43.94
    6    95.9226    1.00000     14.329    -16.290     1.00     1.00     1.00     0.00    -41.70
    7    95.8469    1.00000     28.781    -95.109     1.00     1.00     1.00     0.00    -39.59
    8    95.9941    1.00000     46.353   -121.642     1.00     1.00     1.00     0.00    -37.48
    9    95.9365    1.00000     13.269    -17.821     1.00     1.00     1.00     0.00    -35.50
   10    95.9463    1.00000     17.136    -22.396     1.00     1.00     1.00     0.00    -33.60
   11    95.9192    1.00000      4.565    -13.648     1.00     1.00     1.00     0.00    -31.66
   12    95.9774    1.00000     10.025    -23.916     1.00     1.00     1.00     0.00    -29.43
   13    95.9305    1.00000      7.974    -11.858     1.00     1.00     1.00     0.00    -27.46
   14    95.8379    1.00000     15.705    -18.298     1.00     1.00     1.00     0.00    -25.54
   15    95.9256    1.00000     10.599    -11.408     1.00     1.00     1.00     0.00    -23.39
   16    95.9564    1.00000      8.923    -18.874     1.00     1.00     1.00     0.00    -21.57
   17    95.9177    1.00000     10.998    -15.011     1.00     1.00     1.00     0.00    -19.57
   18    95.9253    1.00000     10.434    -22.026     1.00     1.00     1.00     0.00    -17.45
   19    95.9289    1.00000     10.046    -11.465     1.00     1.00     1.00     0.00    -15.45
   20    95.9028    1.00000      9.542    -13.991     1.00     1.00     1.00     0.00    -13.88
   21    95.9125    1.00000     10.662     -4.086     1.00     1.00     1.00     0.00    -11.52
   22    95.9115    1.00000      4.422    -11.577     1.00     1.00     1.00     0.00     -9.50
   23    95.9094    1.00000      7.116     -7.085     1.00     1.00     1.00     0.00     -7.51
   24    95.8975    1.00000      3.867     -4.403     1.00     1.00     1.00     0.00     -5.45
   25    95.9135    1.00000      5.631     -6.401     1.00     1.00     1.00     0.00     -3.63
   26    95.9015    1.00000      1.648     -7.491     1.00     1.00     1.00     0.00     -1.68
   27    95.9095    1.00000      0.200     -0.098     1.00     1.00     1.00     0.00      0.36
   28    95.9130    1.00000      7.335      2.597     1.00     1.00     1.00     0.00      2.34
   29    95.9087    1.00000      2.090     10.346     1.00     1.00     1.00     0.00      4.34
   30    95.9116    1.00000      5.723     -0.737     1.00     1.00     1.00     0.00      6.37
   31    95.9132    1.00000      9.068      2.140     1.00     1.00     1.00     0.00      8.35
   32    95.9040    1.00000     12.504      5.989     1.00     1.00     1.00     0.00     10.35
   33    95.9143    1.00000      9.256     -2.030     1.00     1.00     1.00     0.00     12.28
   34    95.9147    1.00000     13.197      6.936     1.00     1.00     1.00     0.00     14.53
   35    95.9171    1.00000     10.007    -13.259     1.00     1.00     1.00     0.00     16.33
   36    95.9345    1.00000     15.743      4.471     1.00     1.00     1.00     0.00     18.47
   37    95.9172    1.00000      7.023    -11.827     1.00     1.00     1.00     0.00     20.44
   38    95.9330    1.00000     19.749     -0.604     1.00     1.00     1.00     0.00     22.37
   39    95.9077    1.00000      6.112    -24.591     1.00     1.00     1.00     0.00     24.39
   40    95.9122    1.00000     16.821    -14.510     1.00     1.00     1.00     0.00     26.43
   41    95.9364    1.00000      2.969    -32.882     1.00     1.00     1.00     0.00     28.13
   42    95.8670    1.00000     18.324    -12.657     1.00     1.00     1.00     0.00     30.56
   43    95.9159    1.00000      1.189    -39.125     1.00     1.00     1.00     0.00     32.47
   44    95.9374    1.00000     18.672    -18.747     1.00     1.00     1.00     0.00     34.42
   45    95.9731    1.00000      3.544    -28.674     1.00     1.00     1.00     0.00     36.48
   46    95.9065    1.00000     20.347    -17.666     1.00     1.00     1.00     0.00     38.24
   47    95.8859    1.00000      3.928    -36.254     1.00     1.00     1.00     0.00     40.40
   48    95.8591    1.00000     19.160    -10.330     1.00     1.00     1.00     0.00     42.43
   49    95.7395    1.00000      0.378    -24.315     1.00     1.00     1.00     0.00     44.51
   50    95.8217    1.00000     22.287    -14.342     1.00     1.00     1.00     0.00     46.40
   51    95.8519    1.00000     -0.678    -25.057     1.00     1.00     1.00     0.00     48.46
   52    95.9970    1.00000     21.407    -22.323     1.00     1.00     1.00     0.00     50.56
   53    95.9322    1.00000     -1.546    -17.458     1.00     1.00     1.00     0.00     52.39
   54    95.9322    1.00000     15.830    -10.656     1.00     1.00     1.00     0.00     54.39
   55    95.9322    1.00000     -5.676    -33.679     1.00     1.00     1.00     0.00     56.39
