# AreTomo Alignment / Priims bprmMn
# RawSize = 4096 4096 55
# NumPatches = 0
# AlphaOffset =    15.50
# BetaOffset =     0.00
# Thickness = 2290
# SEC     ROT         GMAG       TX          TY      SMEAN     SFIT    SCALE     BASE     TILT
    1    94.4321    1.00000      3.467     52.428     1.00     1.00     1.00     0.00    -48.46
    2    94.5401    1.00000      8.305     52.985     1.00     1.00     1.00     0.00    -46.45
    3    94.4956    1.00000      3.068     58.111     1.00     1.00     1.00     0.00    -44.49
    4    94.4896    1.00000      5.068     51.811     1.00     1.00     1.00     0.00    -42.48
    5    94.4708    1.00000     -0.568     38.285     1.00     1.00     1.00     0.00    -40.46
    6    94.4510    1.00000      4.313     36.888     1.00     1.00     1.00     0.00    -38.45
    7    94.4866    1.00000     -2.345     38.634     1.00     1.00     1.00     0.00    -36.44
    8    94.5096    1.00000      3.951     22.746     1.00     1.00     1.00     0.00    -34.42
    9    94.5142    1.00000      0.563     18.531     1.00     1.00     1.00     0.00    -32.43
   10    94.5230    1.00000      4.707     15.711     1.00     1.00     1.00     0.00    -30.46
   11    94.5334    1.00000     -4.600     11.068     1.00     1.00     1.00     0.00    -28.48
   12    94.5314    1.00000      3.858      0.707     1.00     1.00     1.00     0.00    -26.48
   13    94.5401    1.00000     -0.894      4.213     1.00     1.00     1.00     0.00    -24.48
   14    94.5462    1.00000      4.696     -4.164     1.00     1.00     1.00     0.00    -22.46
   15    94.5514    1.00000      0.284      3.296     1.00     1.00     1.00     0.00    -20.46
   16    94.5542    1.00000      4.508     -2.443     1.00     1.00     1.00     0.00    -18.43
   17    94.5631    1.00000      3.609     -1.284     1.00     1.00     1.00     0.00    -16.46
   18    94.5406    1.00000      2.789     -1.004     1.00     1.00     1.00     0.00    -14.48
   19    94.5554    1.00000      2.935      8.195     1.00     1.00     1.00     0.00    -12.54
   20    94.5470    1.00000      5.434     -2.003     1.00     1.00     1.00     0.00    -10.42
   21    94.5438    1.00000      4.652      5.071     1.00     1.00     1.00     0.00     -8.43
   22    94.5393    1.00000      1.607     -4.986     1.00     1.00     1.00     0.00     -6.50
   23    94.5469    1.00000      2.012      1.540     1.00     1.00     1.00     0.00     -4.50
   24    94.5426    1.00000      1.319      5.191     1.00     1.00     1.00     0.00     -2.52
   25    94.5413    1.00000      0.303      0.148     1.00     1.00     1.00     0.00     -0.55
   26    94.5339    1.00000      0.743      4.997     1.00     1.00     1.00     0.00      1.41
   27    94.5272    1.00000     -8.696     42.159     1.00     1.00     1.00     0.00      3.43
   28    94.5238    1.00000      7.473     13.271     1.00     1.00     1.00     0.00      5.39
   29    94.5212    1.00000      7.611    -26.399     1.00     1.00     1.00     0.00      7.39
   30    94.5229    1.00000      1.971     35.386     1.00     1.00     1.00     0.00      9.37
   31    94.5202    1.00000      8.837     23.608     1.00     1.00     1.00     0.00     11.39
   32    94.5221    1.00000      8.823     43.961     1.00     1.00     1.00     0.00     13.41
   33    94.5134    1.00000      9.107     19.463     1.00     1.00     1.00     0.00     15.40
   34    94.5093    1.00000     11.832     41.366     1.00     1.00     1.00     0.00     17.41
   35    94.4996    1.00000      6.117     25.355     1.00     1.00     1.00     0.00     19.39
   36    94.5013    1.00000     11.539     52.223     1.00     1.00     1.00     0.00     21.41
   37    94.4899    1.00000      4.703     21.493     1.00     1.00     1.00     0.00     23.44
   38    94.4816    1.00000     13.048     43.588     1.00     1.00     1.00     0.00     25.46
   39    94.4774    1.00000      3.946     18.546     1.00     1.00     1.00     0.00     27.45
   40    94.4833    1.00000     12.424     48.026     1.00     1.00     1.00     0.00     29.45
   41    94.4761    1.00000     -2.822     11.368     1.00     1.00     1.00     0.00     31.46
   42    94.4837    1.00000     14.168     49.683     1.00     1.00     1.00     0.00     33.45
   43    94.4718    1.00000     -3.853     28.241     1.00     1.00     1.00     0.00     35.45
   44    94.4726    1.00000     13.479     51.920     1.00     1.00     1.00     0.00     37.44
   45    94.4628    1.00000     -1.875     30.000     1.00     1.00     1.00     0.00     39.46
   46    94.4624    1.00000     15.851     60.266     1.00     1.00     1.00     0.00     41.45
   47    94.4384    1.00000     -5.197     30.511     1.00     1.00     1.00     0.00     43.46
   48    94.4543    1.00000     14.228     62.484     1.00     1.00     1.00     0.00     45.49
   49    94.4450    1.00000     -5.504     42.018     1.00     1.00     1.00     0.00     47.46
   50    94.4587    1.00000     15.850     63.911     1.00     1.00     1.00     0.00     49.44
   51    94.4341    1.00000     -6.657     38.778     1.00     1.00     1.00     0.00     51.42
   52    94.4078    1.00000     19.373     54.646     1.00     1.00     1.00     0.00     53.61
   53    94.3679    1.00000    -10.248     40.453     1.00     1.00     1.00     0.00     55.41
   54    94.3881    1.00000     18.168     51.627     1.00     1.00     1.00     0.00     57.45
   55    94.4402    1.00000    -13.119     30.696     1.00     1.00     1.00     0.00     59.52
