# AreTomo Alignment / Priims bprmMn
# RawSize = 4096 4096 55
# NumPatches = 0
# DarkFrame =    53   54    57.49
# DarkFrame =    54   55    59.49
# AlphaOffset =    15.50
# BetaOffset =     0.00
# Thickness = 1860
# SEC     ROT         GMAG       TX          TY      SMEAN     SFIT    SCALE     BASE     TILT
    1    96.5292    1.00000    -18.779    127.269     1.00     1.00     1.00     0.00    -48.47
    2    96.6147    1.00000    -12.199    113.340     1.00     1.00     1.00     0.00    -46.53
    3    96.7375    1.00000    -17.259    117.086     1.00     1.00     1.00     0.00    -44.47
    4    96.4682    1.00000    -13.885     93.034     1.00     1.00     1.00     0.00    -42.55
    5    96.7690    1.00000    -16.802     93.955     1.00     1.00     1.00     0.00    -40.40
    6    96.6450    1.00000     -5.296     63.235     1.00     1.00     1.00     0.00    -38.36
    7    96.5897    1.00000    -13.223     71.553     1.00     1.00     1.00     0.00    -36.35
    8    96.6245    1.00000     -1.660     44.034     1.00     1.00     1.00     0.00    -34.44
    9    96.6756    1.00000     -7.790     48.167     1.00     1.00     1.00     0.00    -32.26
   10    96.5556    1.00000      0.728     34.816     1.00     1.00     1.00     0.00    -30.48
   11    96.6437    1.00000     -9.178     38.643     1.00     1.00     1.00     0.00    -28.40
   12    96.6051    1.00000      0.867     19.953     1.00     1.00     1.00     0.00    -26.40
   13    96.6359    1.00000     -5.008     32.941     1.00     1.00     1.00     0.00    -24.37
   14    96.6207    1.00000      5.417     11.583     1.00     1.00     1.00     0.00    -22.43
   15    96.6050    1.00000     -0.721     24.767     1.00     1.00     1.00     0.00    -20.43
   16    96.5924    1.00000      4.999      5.629     1.00     1.00     1.00     0.00    -18.47
   17    96.5687    1.00000      0.983     16.286     1.00     1.00     1.00     0.00    -16.50
   18    96.6191    1.00000      3.962      7.455     1.00     1.00     1.00     0.00    -14.53
   19    96.5776    1.00000     -0.952     20.607     1.00     1.00     1.00     0.00    -12.58
   20    96.5999    1.00000      6.225     -3.114     1.00     1.00     1.00     0.00    -10.52
   21    96.5754    1.00000      3.320     11.094     1.00     1.00     1.00     0.00     -8.54
   22    96.6122    1.00000      2.010    -10.753     1.00     1.00     1.00     0.00     -6.57
   23    96.6042    1.00000      0.761      3.238     1.00     1.00     1.00     0.00     -4.55
   24    96.5916    1.00000      0.318     -4.178     1.00     1.00     1.00     0.00     -2.59
   25    96.5971    1.00000      0.121      0.270     1.00     1.00     1.00     0.00     -0.57
   26    96.6049    1.00000     -2.702     -9.075     1.00     1.00     1.00     0.00      1.45
   27    96.5953    1.00000     -4.023     16.051     1.00     1.00     1.00     0.00      3.46
   28    96.6024    1.00000      5.732      3.137     1.00     1.00     1.00     0.00      5.46
   29    96.5987    1.00000      5.299      5.757     1.00     1.00     1.00     0.00      7.45
   30    96.6023    1.00000     -4.381     22.298     1.00     1.00     1.00     0.00      9.45
   31    96.6125    1.00000      4.443     -1.350     1.00     1.00     1.00     0.00     11.45
   32    96.6118    1.00000      2.371     24.462     1.00     1.00     1.00     0.00     13.48
   33    96.6066    1.00000      2.188     -2.597     1.00     1.00     1.00     0.00     15.49
   34    96.5944    1.00000      3.903     21.443     1.00     1.00     1.00     0.00     17.51
   35    96.6221    1.00000     -3.127     -1.020     1.00     1.00     1.00     0.00     19.55
   36    96.6034    1.00000      2.477     25.807     1.00     1.00     1.00     0.00     21.55
   37    96.6284    1.00000     -5.638     -4.810     1.00     1.00     1.00     0.00     23.52
   38    96.5764    1.00000      2.611     17.942     1.00     1.00     1.00     0.00     25.52
   39    96.6257    1.00000    -10.469    -12.063     1.00     1.00     1.00     0.00     27.56
   40    96.6226    1.00000     -1.891     25.869     1.00     1.00     1.00     0.00     29.55
   41    96.5965    1.00000    -12.498    -17.500     1.00     1.00     1.00     0.00     31.52
   42    96.5936    1.00000      0.944     13.499     1.00     1.00     1.00     0.00     33.44
   43    96.6383    1.00000    -17.375    -10.496     1.00     1.00     1.00     0.00     35.56
   44    96.5621    1.00000     -0.005      2.505     1.00     1.00     1.00     0.00     37.53
   45    96.6360    1.00000    -12.584    -17.447     1.00     1.00     1.00     0.00     39.41
   46    96.5067    1.00000      1.915     10.826     1.00     1.00     1.00     0.00     41.59
   47    96.6159    1.00000    -11.437    -26.477     1.00     1.00     1.00     0.00     43.26
   48    96.8143    1.00000      7.754     -5.010     1.00     1.00     1.00     0.00     45.19
   49    96.4338    1.00000    -13.502    -29.708     1.00     1.00     1.00     0.00     47.63
   50    96.2718    1.00000      7.565    -23.158     1.00     1.00     1.00     0.00     49.50
   51    96.6532    1.00000    -10.127    -34.452     1.00     1.00     1.00     0.00     51.45
   52    96.8860    1.00000      0.429    -26.313     1.00     1.00     1.00     0.00     53.57
   53    97.0716    1.00000    -14.412    -46.351     1.00     1.00     1.00     0.00     55.62
