# AreTomo Alignment / Priims bprmMn
# RawSize = 4096 4096 55
# NumPatches = 0
# AlphaOffset =     9.30
# BetaOffset =     0.00
# Thickness = 2340
# SEC     ROT         GMAG       TX          TY      SMEAN     SFIT    SCALE     BASE     TILT
    1    96.2640    1.00000    -27.471     41.696     1.00     1.00     1.00     0.00    -54.67
    2    96.5104    1.00000     -7.868     12.035     1.00     1.00     1.00     0.00    -52.64
    3    95.9343    1.00000    -33.311     60.522     1.00     1.00     1.00     0.00    -50.67
    4    96.1485    1.00000    -13.206      8.344     1.00     1.00     1.00     0.00    -48.49
    5    96.2538    1.00000    -28.735     54.338     1.00     1.00     1.00     0.00    -46.53
    6    96.0527    1.00000     -5.830    -14.609     1.00     1.00     1.00     0.00    -44.71
    7    95.9226    1.00000    -24.668     15.836     1.00     1.00     1.00     0.00    -42.53
    8    96.1724    1.00000     -3.921    -14.941     1.00     1.00     1.00     0.00    -40.69
    9    96.0372    1.00000    -24.244     20.603     1.00     1.00     1.00     0.00    -38.84
   10    96.1094    1.00000     -3.208     -9.177     1.00     1.00     1.00     0.00    -36.76
   11    96.1086    1.00000    -25.290     13.178     1.00     1.00     1.00     0.00    -34.69
   12    96.1616    1.00000     -4.087    -13.760     1.00     1.00     1.00     0.00    -33.06
   13    96.0980    1.00000    -18.896     13.102     1.00     1.00     1.00     0.00    -31.11
   14    96.0842    1.00000     -1.015    -11.856     1.00     1.00     1.00     0.00    -29.13
   15    96.0912    1.00000    -12.932     11.902     1.00     1.00     1.00     0.00    -27.11
   16    96.0855    1.00000     -1.346    -11.442     1.00     1.00     1.00     0.00    -25.04
   17    96.0878    1.00000    -11.814      0.953     1.00     1.00     1.00     0.00    -23.07
   18    96.0785    1.00000     -1.474    -10.932     1.00     1.00     1.00     0.00    -21.04
   19    96.0726    1.00000    -10.162     13.066     1.00     1.00     1.00     0.00    -18.93
   20    96.0596    1.00000     -2.488    -16.667     1.00     1.00     1.00     0.00    -16.72
   21    96.0662    1.00000     -5.980      2.887     1.00     1.00     1.00     0.00    -14.73
   22    96.0718    1.00000     -4.283    -22.089     1.00     1.00     1.00     0.00    -12.69
   23    96.0598    1.00000     -7.772     -0.038     1.00     1.00     1.00     0.00    -10.61
   24    96.0688    1.00000     -3.574     -3.470     1.00     1.00     1.00     0.00     -8.53
   25    96.0719    1.00000     -9.405     -3.784     1.00     1.00     1.00     0.00     -6.50
   26    96.0763    1.00000     -6.373     -4.414     1.00     1.00     1.00     0.00     -4.55
   27    96.0786    1.00000    -14.497    -11.716     1.00     1.00     1.00     0.00     -2.52
   28    96.0774    1.00000      0.588      0.376     1.00     1.00     1.00     0.00     -0.48
   29    96.0767    1.00000     -9.065     23.743     1.00     1.00     1.00     0.00      1.56
   30    96.0779    1.00000     -6.608      9.995     1.00     1.00     1.00     0.00      3.59
   31    96.0718    1.00000      0.691     -8.351     1.00     1.00     1.00     0.00      5.53
   32    96.0688    1.00000     -2.818     24.501     1.00     1.00     1.00     0.00      7.53
   33    96.0754    1.00000      1.795    -11.205     1.00     1.00     1.00     0.00      9.55
   34    96.0926    1.00000      2.814     19.461     1.00     1.00     1.00     0.00     11.51
   35    96.0888    1.00000      0.042    -12.562     1.00     1.00     1.00     0.00     13.39
   36    96.0764    1.00000      5.015     23.932     1.00     1.00     1.00     0.00     15.37
   37    96.0824    1.00000     -4.290    -17.614     1.00     1.00     1.00     0.00     17.32
   38    96.0657    1.00000      5.061     15.252     1.00     1.00     1.00     0.00     19.19
   39    96.0953    1.00000     -8.110    -15.520     1.00     1.00     1.00     0.00     21.18
   40    96.0844    1.00000      4.828     21.873     1.00     1.00     1.00     0.00     23.02
   41    96.0854    1.00000    -13.858    -16.940     1.00     1.00     1.00     0.00     25.01
   42    96.0922    1.00000      7.832     16.323     1.00     1.00     1.00     0.00     26.96
   43    96.1008    1.00000    -19.929    -15.003     1.00     1.00     1.00     0.00     28.98
   44    96.0881    1.00000      8.515      6.057     1.00     1.00     1.00     0.00     30.80
   45    96.1026    1.00000    -19.035    -11.230     1.00     1.00     1.00     0.00     32.89
   46    96.1197    1.00000      7.696     11.039     1.00     1.00     1.00     0.00     35.15
   47    95.8804    1.00000    -30.635    -20.181     1.00     1.00     1.00     0.00     37.56
   48    96.0464    1.00000     23.286     22.092     1.00     1.00     1.00     0.00     39.25
   49    96.0074    1.00000    -16.592    -20.498     1.00     1.00     1.00     0.00     41.87
   50    96.0400    1.00000     11.622     13.335     1.00     1.00     1.00     0.00     43.28
   51    95.9466    1.00000    -23.717      5.214     1.00     1.00     1.00     0.00     45.08
   52    96.1452    1.00000      4.908     13.491     1.00     1.00     1.00     0.00     47.49
   53    95.7374    1.00000    -19.691    -18.195     1.00     1.00     1.00     0.00     49.23
   54    96.2439    1.00000     -1.502     28.598     1.00     1.00     1.00     0.00     51.03
   55    96.0985    1.00000    -30.156     -0.346     1.00     1.00     1.00     0.00     52.96
