# AreTomo Alignment / Priims bprmMn
# RawSize = 4096 4096 55
# NumPatches = 0
# AlphaOffset =    12.40
# BetaOffset =     0.00
# Thickness = 1840
# SEC     ROT         GMAG       TX          TY      SMEAN     SFIT    SCALE     BASE     TILT
    1    96.5807    1.00000    -12.119      9.410     1.00     1.00     1.00     0.00    -51.69
    2    96.2009    1.00000     -5.273    -10.238     1.00     1.00     1.00     0.00    -49.52
    3    96.2673    1.00000     -9.460      2.273     1.00     1.00     1.00     0.00    -47.60
    4    96.4421    1.00000     -1.574     -0.313     1.00     1.00     1.00     0.00    -45.63
    5    96.4032    1.00000     -5.937     -9.597     1.00     1.00     1.00     0.00    -43.61
    6    96.5284    1.00000      0.329    -25.659     1.00     1.00     1.00     0.00    -41.58
    7    96.4452    1.00000     -3.862    -11.219     1.00     1.00     1.00     0.00    -39.72
    8    96.4383    1.00000      2.025    -32.745     1.00     1.00     1.00     0.00    -37.53
    9    96.3279    1.00000      5.938     -5.300     1.00     1.00     1.00     0.00    -35.73
   10    96.3732    1.00000      5.251    -25.214     1.00     1.00     1.00     0.00    -33.59
   11    96.3668    1.00000      1.015     -5.712     1.00     1.00     1.00     0.00    -31.59
   12    96.3410    1.00000      8.935    -32.060     1.00     1.00     1.00     0.00    -29.67
   13    96.4348    1.00000      2.893     -8.536     1.00     1.00     1.00     0.00    -27.57
   14    96.5222    1.00000      6.563    -36.092     1.00     1.00     1.00     0.00    -25.76
   15    96.4593    1.00000      5.652    -12.727     1.00     1.00     1.00     0.00    -23.46
   16    96.4737    1.00000      7.061    -38.050     1.00     1.00     1.00     0.00    -21.56
   17    96.4192    1.00000      6.791    -18.726     1.00     1.00     1.00     0.00    -19.58
   18    96.4263    1.00000      8.265    -34.774     1.00     1.00     1.00     0.00    -17.77
   19    96.4190    1.00000      2.576    -16.302     1.00     1.00     1.00     0.00    -15.65
   20    96.4536    1.00000      8.672    -45.540     1.00     1.00     1.00     0.00    -13.64
   21    96.4412    1.00000     10.000    -25.947     1.00     1.00     1.00     0.00    -11.65
   22    96.4278    1.00000      7.081    -48.302     1.00     1.00     1.00     0.00     -9.53
   23    96.4320    1.00000      9.560    -35.332     1.00     1.00     1.00     0.00     -7.63
   24    96.4350    1.00000      6.473    -39.886     1.00     1.00     1.00     0.00     -5.62
   25    96.4340    1.00000      7.689    -27.964     1.00     1.00     1.00     0.00     -3.58
   26    96.4318    1.00000      1.465    -22.201     1.00     1.00     1.00     0.00     -1.58
   27    96.4302    1.00000      0.211     -0.102     1.00     1.00     1.00     0.00      0.41
   28    96.4297    1.00000      5.557      4.014     1.00     1.00     1.00     0.00      2.40
   29    96.4336    1.00000      3.143      8.493     1.00     1.00     1.00     0.00      4.41
   30    96.4284    1.00000      3.754     42.832     1.00     1.00     1.00     0.00      6.43
   31    96.4354    1.00000      2.848     41.728     1.00     1.00     1.00     0.00      8.41
   32    96.4348    1.00000      9.055     80.413     1.00     1.00     1.00     0.00     10.42
   33    96.4352    1.00000      6.122     52.631     1.00     1.00     1.00     0.00     12.45
   34    96.4464    1.00000     12.197     92.942     1.00     1.00     1.00     0.00     14.42
   35    96.4351    1.00000      5.939     63.506     1.00     1.00     1.00     0.00     16.35
   36    96.4405    1.00000     16.098     93.795     1.00     1.00     1.00     0.00     18.37
   37    96.4031    1.00000      1.621     64.858     1.00     1.00     1.00     0.00     20.46
   38    96.4276    1.00000     14.814     95.987     1.00     1.00     1.00     0.00     22.26
   39    96.4546    1.00000     -2.894     62.670     1.00     1.00     1.00     0.00     24.42
   40    96.4731    1.00000     12.818    103.112     1.00     1.00     1.00     0.00     26.34
   41    96.4814    1.00000     -7.920     66.760     1.00     1.00     1.00     0.00     28.28
   42    96.5593    1.00000     12.736    107.010     1.00     1.00     1.00     0.00     30.25
   43    96.4041    1.00000    -13.031     72.754     1.00     1.00     1.00     0.00     32.44
   44    96.3659    1.00000     12.115     95.572     1.00     1.00     1.00     0.00     34.57
   45    96.2922    1.00000     -8.765     76.371     1.00     1.00     1.00     0.00     36.51
   46    96.4783    1.00000     17.075    103.285     1.00     1.00     1.00     0.00     38.34
   47    96.3139    1.00000    -11.591     67.112     1.00     1.00     1.00     0.00     40.41
   48    96.2823    1.00000     12.846    105.563     1.00     1.00     1.00     0.00     42.44
   49    96.3076    1.00000     -9.551     58.588     1.00     1.00     1.00     0.00     44.62
   50    96.2251    1.00000     16.891     70.443     1.00     1.00     1.00     0.00     46.30
   51    96.4717    1.00000     -5.875     74.300     1.00     1.00     1.00     0.00     48.57
   52    96.2793    1.00000     12.009     76.797     1.00     1.00     1.00     0.00     50.58
   53    96.5234    1.00000     -6.316     59.139     1.00     1.00     1.00     0.00     52.30
   54    96.4793    1.00000     14.314     78.001     1.00     1.00     1.00     0.00     54.31
   55    96.3603    1.00000    -11.479     51.849     1.00     1.00     1.00     0.00     56.50
