# AreTomo Alignment / Priims bprmMn
# RawSize = 4096 4096 55
# NumPatches = 0
# DarkFrame =     0    1   -52.50
# DarkFrame =    53   54    53.49
# DarkFrame =    54   55    55.49
# AlphaOffset =    11.50
# BetaOffset =     0.00
# Thickness = 1130
# SEC     ROT         GMAG       TX          TY      SMEAN     SFIT    SCALE     BASE     TILT
    2    96.0594    1.00000     65.237   -637.971     1.00     1.00     1.00     0.00    -50.54
    3    96.0665    1.00000     51.657   -645.900     1.00     1.00     1.00     0.00    -48.60
    4    95.8968    1.00000     62.465   -672.275     1.00     1.00     1.00     0.00    -46.43
    5    95.9313    1.00000     48.778   -630.258     1.00     1.00     1.00     0.00    -44.44
    6    96.1193    1.00000     52.361   -616.436     1.00     1.00     1.00     0.00    -42.41
    7    96.1364    1.00000     44.563   -595.651     1.00     1.00     1.00     0.00    -40.46
    8    95.9743    1.00000     52.382   -583.789     1.00     1.00     1.00     0.00    -38.71
    9    96.0711    1.00000     56.020   -577.443     1.00     1.00     1.00     0.00    -36.60
   10    95.8960    1.00000     63.874   -581.853     1.00     1.00     1.00     0.00    -34.67
   11    96.0852    1.00000     43.593   -529.593     1.00     1.00     1.00     0.00    -32.33
   12    96.0308    1.00000     55.423   -544.626     1.00     1.00     1.00     0.00    -30.48
   13    96.0218    1.00000     45.310   -478.202     1.00     1.00     1.00     0.00    -28.49
   14    96.0516    1.00000     49.708   -471.276     1.00     1.00     1.00     0.00    -26.37
   15    96.0509    1.00000     41.166   -423.031     1.00     1.00     1.00     0.00    -24.63
   16    95.9848    1.00000     36.922   -390.217     1.00     1.00     1.00     0.00    -22.46
   17    96.0425    1.00000     34.625   -365.685     1.00     1.00     1.00     0.00    -20.47
   18    96.0251    1.00000     28.223   -303.083     1.00     1.00     1.00     0.00    -18.53
   19    96.0331    1.00000     18.998   -250.130     1.00     1.00     1.00     0.00    -16.48
   20    96.0409    1.00000     17.757   -223.688     1.00     1.00     1.00     0.00    -14.36
   21    96.0379    1.00000     16.396   -164.451     1.00     1.00     1.00     0.00    -12.55
   22    96.0102    1.00000     10.659   -160.439     1.00     1.00     1.00     0.00    -10.64
   23    96.0367    1.00000      5.112    -89.582     1.00     1.00     1.00     0.00     -8.52
   24    96.0176    1.00000      6.445   -100.019     1.00     1.00     1.00     0.00     -6.48
   25    96.0213    1.00000      0.550    -51.842     1.00     1.00     1.00     0.00     -4.58
   26    96.0025    1.00000     -6.218    -13.645     1.00     1.00     1.00     0.00     -2.53
   27    96.0155    1.00000     -0.194     -0.461     1.00     1.00     1.00     0.00     -0.54
   28    96.0131    1.00000     -3.672     16.675     1.00     1.00     1.00     0.00      1.48
   29    96.0140    1.00000     -1.227     33.746     1.00     1.00     1.00     0.00      3.46
   30    96.0037    1.00000    -16.186    114.022     1.00     1.00     1.00     0.00      5.44
   31    96.0076    1.00000    -15.452    139.711     1.00     1.00     1.00     0.00      7.47
   32    96.0147    1.00000    -16.044    162.576     1.00     1.00     1.00     0.00      9.45
   33    96.0460    1.00000    -15.858    166.156     1.00     1.00     1.00     0.00     11.36
   34    96.0295    1.00000    -16.470    232.071     1.00     1.00     1.00     0.00     13.49
   35    96.0512    1.00000    -27.185    258.403     1.00     1.00     1.00     0.00     15.55
   36    95.9921    1.00000    -26.848    304.666     1.00     1.00     1.00     0.00     17.59
   37    95.9776    1.00000    -41.566    319.837     1.00     1.00     1.00     0.00     19.55
   38    96.0983    1.00000    -32.996    377.801     1.00     1.00     1.00     0.00     21.68
   39    96.0438    1.00000    -46.794    389.063     1.00     1.00     1.00     0.00     23.30
   40    96.1184    1.00000    -41.616    464.314     1.00     1.00     1.00     0.00     25.57
   41    96.0753    1.00000    -60.665    473.061     1.00     1.00     1.00     0.00     27.40
   42    96.0499    1.00000    -44.672    515.869     1.00     1.00     1.00     0.00     29.50
   43    96.0145    1.00000    -74.607    522.517     1.00     1.00     1.00     0.00     31.49
   44    96.0358    1.00000    -55.318    576.201     1.00     1.00     1.00     0.00     33.46
   45    96.0148    1.00000    -80.557    610.545     1.00     1.00     1.00     0.00     35.53
   46    95.9115    1.00000    -61.008    677.388     1.00     1.00     1.00     0.00     37.47
   47    95.9234    1.00000    -87.186    685.544     1.00     1.00     1.00     0.00     39.56
   48    96.0771    1.00000    -63.753    760.701     1.00     1.00     1.00     0.00     41.46
   49    96.0446    1.00000    -94.748    761.913     1.00     1.00     1.00     0.00     43.54
   50    95.8142    1.00000    -70.733    789.544     1.00     1.00     1.00     0.00     45.52
   51    96.1665    1.00000   -102.024    794.311     1.00     1.00     1.00     0.00     47.41
   52    95.9199    1.00000    -75.938    800.441     1.00     1.00     1.00     0.00     49.57
   53    96.1749    1.00000   -106.974    783.366     1.00     1.00     1.00     0.00     51.40
