# AreTomo Alignment / Priims bprmMn
# RawSize = 4096 4096 55
# NumPatches = 0
# DarkFrame =    52   53    52.39
# DarkFrame =    53   54    54.39
# DarkFrame =    54   55    56.39
# AlphaOffset =    12.40
# BetaOffset =     0.00
# Thickness = 1270
# SEC     ROT         GMAG       TX          TY      SMEAN     SFIT    SCALE     BASE     TILT
    1    96.5625    1.00000    -19.569     31.667     1.00     1.00     1.00     0.00    -51.57
    2    96.5684    1.00000    -19.321     39.148     1.00     1.00     1.00     0.00    -49.57
    3    96.4569    1.00000    -17.486      6.947     1.00     1.00     1.00     0.00    -47.50
    4    96.4821    1.00000    -15.342     13.225     1.00     1.00     1.00     0.00    -45.57
    5    96.4521    1.00000    -10.850     12.573     1.00     1.00     1.00     0.00    -43.57
    6    96.4258    1.00000     -6.700      1.551     1.00     1.00     1.00     0.00    -41.58
    7    96.4319    1.00000    -13.708     28.974     1.00     1.00     1.00     0.00    -39.58
    8    96.4118    1.00000     -4.378      4.142     1.00     1.00     1.00     0.00    -37.68
    9    96.4217    1.00000     -7.580      8.496     1.00     1.00     1.00     0.00    -35.59
   10    96.4179    1.00000     -2.752     -2.062     1.00     1.00     1.00     0.00    -33.63
   11    96.4065    1.00000    -11.540      3.266     1.00     1.00     1.00     0.00    -31.58
   12    96.4107    1.00000     -5.510      0.855     1.00     1.00     1.00     0.00    -29.61
   13    96.4238    1.00000     -6.412      0.790     1.00     1.00     1.00     0.00    -27.58
   14    96.4362    1.00000     -4.337     -1.103     1.00     1.00     1.00     0.00    -25.66
   15    96.4022    1.00000     -4.406      0.809     1.00     1.00     1.00     0.00    -23.68
   16    96.4092    1.00000     -3.919     -5.638     1.00     1.00     1.00     0.00    -21.68
   17    96.4033    1.00000     -5.466      1.514     1.00     1.00     1.00     0.00    -19.65
   18    96.3897    1.00000     -6.940     -6.675     1.00     1.00     1.00     0.00    -17.74
   19    96.3899    1.00000     -6.130     -1.857     1.00     1.00     1.00     0.00    -15.71
   20    96.3928    1.00000     -5.998    -11.254     1.00     1.00     1.00     0.00    -13.71
   21    96.3798    1.00000     -4.125     -2.901     1.00     1.00     1.00     0.00    -11.72
   22    96.3762    1.00000     -8.300     -7.760     1.00     1.00     1.00     0.00     -9.69
   23    96.3757    1.00000     -6.993     -3.909     1.00     1.00     1.00     0.00     -7.68
   24    96.3719    1.00000    -10.099     -3.851     1.00     1.00     1.00     0.00     -5.68
   25    96.3746    1.00000     -9.629     -5.023     1.00     1.00     1.00     0.00     -3.66
   26    96.3732    1.00000    -12.750     -5.015     1.00     1.00     1.00     0.00     -1.65
   27    96.3723    1.00000      0.016      0.090     1.00     1.00     1.00     0.00      0.36
   28    96.3722    1.00000     -4.432     -0.568     1.00     1.00     1.00     0.00      2.36
   29    96.3734    1.00000      2.042      7.466     1.00     1.00     1.00     0.00      4.37
   30    96.3755    1.00000     -7.389     -0.111     1.00     1.00     1.00     0.00      6.38
   31    96.3760    1.00000     -7.914     -0.285     1.00     1.00     1.00     0.00      8.38
   32    96.3763    1.00000     -2.712     12.563     1.00     1.00     1.00     0.00     10.39
   33    96.3766    1.00000     -4.447     -3.992     1.00     1.00     1.00     0.00     12.39
   34    96.3751    1.00000     -0.399     18.124     1.00     1.00     1.00     0.00     14.42
   35    96.3804    1.00000     -5.056     -8.721     1.00     1.00     1.00     0.00     16.41
   36    96.3840    1.00000      1.832     21.803     1.00     1.00     1.00     0.00     18.37
   37    96.3924    1.00000     -8.508     -3.356     1.00     1.00     1.00     0.00     20.38
   38    96.4036    1.00000      1.533     12.574     1.00     1.00     1.00     0.00     22.38
   39    96.4091    1.00000    -12.370    -13.591     1.00     1.00     1.00     0.00     24.34
   40    96.4163    1.00000      3.656      7.834     1.00     1.00     1.00     0.00     26.33
   41    96.4335    1.00000    -16.534    -14.298     1.00     1.00     1.00     0.00     28.32
   42    96.4170    1.00000      1.967     14.061     1.00     1.00     1.00     0.00     30.33
   43    96.4143    1.00000    -13.577    -19.510     1.00     1.00     1.00     0.00     32.34
   44    96.4002    1.00000      4.187      7.610     1.00     1.00     1.00     0.00     34.28
   45    96.4094    1.00000    -15.692    -12.409     1.00     1.00     1.00     0.00     36.32
   46    96.3877    1.00000      6.030     13.957     1.00     1.00     1.00     0.00     38.33
   47    96.4327    1.00000    -16.775    -14.379     1.00     1.00     1.00     0.00     40.34
   48    96.3932    1.00000      5.376     16.401     1.00     1.00     1.00     0.00     42.36
   49    96.3907    1.00000    -18.304     -7.753     1.00     1.00     1.00     0.00     44.34
   50    96.4446    1.00000      5.029      5.715     1.00     1.00     1.00     0.00     46.35
   51    96.4225    1.00000    -18.456      2.843     1.00     1.00     1.00     0.00     48.38
   52    96.4097    1.00000      6.860     10.604     1.00     1.00     1.00     0.00     50.36
