# AreTomo Alignment / Priims bprmMn
# RawSize = 4096 4096 55
# NumPatches = 0
# DarkFrame =    53   54    56.59
# DarkFrame =    54   55    58.59
# AlphaOffset =    14.60
# BetaOffset =     0.00
# Thickness = 900
# SEC     ROT         GMAG       TX          TY      SMEAN     SFIT    SCALE     BASE     TILT
    1    95.5737    1.00000    -18.784     -1.884     1.00     1.00     1.00     0.00    -49.66
    2    95.8562    1.00000    -11.211     29.414     1.00     1.00     1.00     0.00    -47.61
    3    95.7911    1.00000    -13.987     32.041     1.00     1.00     1.00     0.00    -45.84
    4    95.8266    1.00000     -7.999     50.765     1.00     1.00     1.00     0.00    -43.54
    5    95.8861    1.00000     -5.542     44.398     1.00     1.00     1.00     0.00    -41.48
    6    95.9207    1.00000     -1.507     45.808     1.00     1.00     1.00     0.00    -39.43
    7    95.9051    1.00000     -6.657     54.481     1.00     1.00     1.00     0.00    -37.43
    8    95.8452    1.00000      0.084     40.563     1.00     1.00     1.00     0.00    -35.49
    9    95.8447    1.00000      1.501     47.096     1.00     1.00     1.00     0.00    -33.54
   10    95.8318    1.00000      2.680     41.348     1.00     1.00     1.00     0.00    -31.56
   11    95.8554    1.00000     -2.125     47.202     1.00     1.00     1.00     0.00    -29.60
   12    95.8524    1.00000      1.467     37.438     1.00     1.00     1.00     0.00    -27.61
   13    95.8761    1.00000      1.812     47.295     1.00     1.00     1.00     0.00    -25.57
   14    95.8654    1.00000      4.854     34.204     1.00     1.00     1.00     0.00    -23.56
   15    95.8522    1.00000      3.298     43.621     1.00     1.00     1.00     0.00    -21.56
   16    95.8657    1.00000      3.759     29.847     1.00     1.00     1.00     0.00    -19.52
   17    95.8641    1.00000      5.978     35.115     1.00     1.00     1.00     0.00    -17.51
   18    95.8570    1.00000      4.484     24.116     1.00     1.00     1.00     0.00    -15.46
   19    95.8607    1.00000      4.868     32.551     1.00     1.00     1.00     0.00    -13.47
   20    95.8678    1.00000      5.221     13.061     1.00     1.00     1.00     0.00    -11.40
   21    95.8601    1.00000      8.058     26.482     1.00     1.00     1.00     0.00     -9.41
   22    95.8613    1.00000      2.824     12.501     1.00     1.00     1.00     0.00     -7.37
   23    95.8613    1.00000      4.272     16.858     1.00     1.00     1.00     0.00     -5.38
   24    95.8599    1.00000      0.658     10.652     1.00     1.00     1.00     0.00     -3.31
   25    95.8560    1.00000      0.875      2.501     1.00     1.00     1.00     0.00     -1.27
   26    95.8568    1.00000     -0.122     -0.130     1.00     1.00     1.00     0.00      0.70
   27    95.8556    1.00000      2.700      9.184     1.00     1.00     1.00     0.00      2.70
   28    95.8542    1.00000      7.513      3.965     1.00     1.00     1.00     0.00      4.67
   29    95.8556    1.00000     11.467      5.303     1.00     1.00     1.00     0.00      6.69
   30    95.8598    1.00000      4.829      8.940     1.00     1.00     1.00     0.00      8.72
   31    95.8613    1.00000      8.530     -5.416     1.00     1.00     1.00     0.00     10.73
   32    95.8590    1.00000      9.101     -0.907     1.00     1.00     1.00     0.00     12.70
   33    95.8598    1.00000      8.695    -11.609     1.00     1.00     1.00     0.00     14.70
   34    95.8585    1.00000     16.830     -2.513     1.00     1.00     1.00     0.00     16.67
   35    95.8588    1.00000      8.407    -21.364     1.00     1.00     1.00     0.00     18.66
   36    95.8639    1.00000     15.568     -3.377     1.00     1.00     1.00     0.00     20.63
   37    95.8512    1.00000      7.607    -27.322     1.00     1.00     1.00     0.00     22.59
   38    95.8729    1.00000     18.513    -13.167     1.00     1.00     1.00     0.00     24.57
   39    95.8593    1.00000      4.543    -43.125     1.00     1.00     1.00     0.00     26.58
   40    95.8574    1.00000     20.934    -30.169     1.00     1.00     1.00     0.00     28.58
   41    95.8421    1.00000      0.282    -44.271     1.00     1.00     1.00     0.00     30.54
   42    95.8505    1.00000     26.471    -31.674     1.00     1.00     1.00     0.00     32.53
   43    95.8491    1.00000     -2.337    -55.418     1.00     1.00     1.00     0.00     34.53
   44    95.8429    1.00000     25.394    -49.664     1.00     1.00     1.00     0.00     36.53
   45    95.8556    1.00000      1.306    -62.375     1.00     1.00     1.00     0.00     38.50
   46    95.8552    1.00000     28.963    -50.606     1.00     1.00     1.00     0.00     40.50
   47    95.8172    1.00000     -0.665    -64.826     1.00     1.00     1.00     0.00     42.44
   48    95.8738    1.00000     28.275    -42.964     1.00     1.00     1.00     0.00     44.44
   49    95.8730    1.00000     -5.217    -37.668     1.00     1.00     1.00     0.00     46.47
   50    95.8337    1.00000     26.526    -22.599     1.00     1.00     1.00     0.00     48.50
   51    95.7791    1.00000    -12.264    -14.479     1.00     1.00     1.00     0.00     50.54
   52    95.8606    1.00000     20.839      6.493     1.00     1.00     1.00     0.00     52.51
   53    95.7851    1.00000    -16.458     19.510     1.00     1.00     1.00     0.00     54.44
