# AreTomo Alignment / Priims bprmMn
# RawSize = 4096 4096 55
# NumPatches = 0
# DarkFrame =    53   54    57.50
# DarkFrame =    54   55    59.49
# AlphaOffset =    15.50
# BetaOffset =     0.00
# Thickness = 1820
# SEC     ROT         GMAG       TX          TY      SMEAN     SFIT    SCALE     BASE     TILT
    1    95.7911    1.00000    -27.821     38.118     1.00     1.00     1.00     0.00    -48.48
    2    95.9900    1.00000    -14.008     34.797     1.00     1.00     1.00     0.00    -46.54
    3    95.7193    1.00000    -26.268     44.215     1.00     1.00     1.00     0.00    -44.54
    4    95.7780    1.00000    -22.428     41.738     1.00     1.00     1.00     0.00    -42.41
    5    95.7990    1.00000    -28.229     55.061     1.00     1.00     1.00     0.00    -40.33
    6    96.0325    1.00000    -14.669     45.866     1.00     1.00     1.00     0.00    -38.68
    7    96.0497    1.00000    -26.217     60.876     1.00     1.00     1.00     0.00    -36.80
    8    96.1670    1.00000     -7.325     30.204     1.00     1.00     1.00     0.00    -34.45
    9    96.2004    1.00000    -15.258     37.316     1.00     1.00     1.00     0.00    -32.47
   10    96.1318    1.00000     -5.593     19.559     1.00     1.00     1.00     0.00    -30.49
   11    96.1160    1.00000    -16.954     27.555     1.00     1.00     1.00     0.00    -28.51
   12    96.1020    1.00000     -3.970      8.034     1.00     1.00     1.00     0.00    -26.54
   13    96.0780    1.00000    -10.765     19.466     1.00     1.00     1.00     0.00    -24.53
   14    96.0617    1.00000     -1.028      1.625     1.00     1.00     1.00     0.00    -22.50
   15    96.0764    1.00000     -8.416     21.950     1.00     1.00     1.00     0.00    -20.53
   16    96.0538    1.00000     -0.286      7.607     1.00     1.00     1.00     0.00    -18.49
   17    96.0388    1.00000      1.011     17.841     1.00     1.00     1.00     0.00    -16.52
   18    96.0414    1.00000     -1.429      0.262     1.00     1.00     1.00     0.00    -14.50
   19    96.0566    1.00000     -5.621     14.710     1.00     1.00     1.00     0.00    -12.51
   20    96.0376    1.00000     -0.052      0.474     1.00     1.00     1.00     0.00    -10.48
   21    96.0441    1.00000      0.163     11.981     1.00     1.00     1.00     0.00     -8.48
   22    96.0393    1.00000     -2.096     -2.215     1.00     1.00     1.00     0.00     -6.51
   23    96.0337    1.00000     -1.424      9.915     1.00     1.00     1.00     0.00     -4.50
   24    96.0297    1.00000     -1.099      3.805     1.00     1.00     1.00     0.00     -2.53
   25    96.0281    1.00000      0.053      0.192     1.00     1.00     1.00     0.00     -0.53
   26    96.0273    1.00000     -2.577     -2.211     1.00     1.00     1.00     0.00      1.47
   27    96.0287    1.00000     -0.947     -9.506     1.00     1.00     1.00     0.00      3.47
   28    96.0266    1.00000      2.801      3.473     1.00     1.00     1.00     0.00      5.46
   29    96.0268    1.00000      0.320     12.241     1.00     1.00     1.00     0.00      7.47
   30    96.0263    1.00000      1.740     19.118     1.00     1.00     1.00     0.00      9.48
   31    96.0308    1.00000      2.753     -2.224     1.00     1.00     1.00     0.00     11.48
   32    96.0303    1.00000      4.911     26.073     1.00     1.00     1.00     0.00     13.50
   33    96.0306    1.00000      2.964    -11.095     1.00     1.00     1.00     0.00     15.50
   34    96.0296    1.00000     12.237     14.292     1.00     1.00     1.00     0.00     17.49
   35    96.0408    1.00000     -0.970    -13.066     1.00     1.00     1.00     0.00     19.49
   36    96.0130    1.00000     11.569      6.664     1.00     1.00     1.00     0.00     21.51
   37    96.0447    1.00000     -0.090    -23.492     1.00     1.00     1.00     0.00     23.49
   38    96.0685    1.00000     17.522      7.982     1.00     1.00     1.00     0.00     25.38
   39    96.0644    1.00000    -10.594    -13.811     1.00     1.00     1.00     0.00     27.40
   40    96.0678    1.00000      8.757     16.439     1.00     1.00     1.00     0.00     29.38
   41    96.0539    1.00000    -10.685    -13.337     1.00     1.00     1.00     0.00     31.42
   42    95.9960    1.00000     11.558     12.602     1.00     1.00     1.00     0.00     33.44
   43    96.1821    1.00000    -15.117      9.591     1.00     1.00     1.00     0.00     35.64
   44    96.1187    1.00000     10.773     32.045     1.00     1.00     1.00     0.00     37.74
   45    96.1359    1.00000    -16.672     13.715     1.00     1.00     1.00     0.00     39.65
   46    96.2499    1.00000      6.888     39.664     1.00     1.00     1.00     0.00     41.53
   47    96.1198    1.00000    -18.397     16.483     1.00     1.00     1.00     0.00     43.58
   48    96.1793    1.00000      6.003     53.309     1.00     1.00     1.00     0.00     45.56
   49    96.0553    1.00000    -22.113     23.182     1.00     1.00     1.00     0.00     47.66
   50    96.1530    1.00000      7.784     35.517     1.00     1.00     1.00     0.00     49.57
   51    96.1836    1.00000    -22.427     28.486     1.00     1.00     1.00     0.00     51.46
   52    96.2593    1.00000      1.415     36.905     1.00     1.00     1.00     0.00     53.40
   53    96.4474    1.00000    -25.594     35.070     1.00     1.00     1.00     0.00     55.35
