# AreTomo Alignment / Priims bprmMn
# RawSize = 4096 4096 55
# NumPatches = 0
# AlphaOffset =   -12.40
# BetaOffset =     0.00
# Thickness = 1600
# SEC     ROT         GMAG       TX          TY      SMEAN     SFIT    SCALE     BASE     TILT
    1    95.7665    1.00000      4.871    -74.600     1.00     1.00     1.00     0.00    -56.44
    2    95.7283    1.00000    -10.030   -104.166     1.00     1.00     1.00     0.00    -54.26
    3    95.7132    1.00000      5.666   -127.993     1.00     1.00     1.00     0.00    -52.41
    4    95.5224    1.00000     -0.615   -145.182     1.00     1.00     1.00     0.00    -50.47
    5    95.7938    1.00000      5.711   -121.385     1.00     1.00     1.00     0.00    -48.37
    6    95.5761    1.00000      1.026   -142.334     1.00     1.00     1.00     0.00    -46.34
    7    95.6205    1.00000     15.298   -157.889     1.00     1.00     1.00     0.00    -44.32
    8    95.6817    1.00000     -0.106   -113.258     1.00     1.00     1.00     0.00    -42.46
    9    95.7638    1.00000      8.480   -163.972     1.00     1.00     1.00     0.00    -40.29
   10    95.7518    1.00000      2.719   -131.324     1.00     1.00     1.00     0.00    -38.36
   11    95.6693    1.00000     11.154   -124.501     1.00     1.00     1.00     0.00    -36.41
   12    95.6643    1.00000      5.541   -163.159     1.00     1.00     1.00     0.00    -34.45
   13    95.7021    1.00000     10.766   -163.881     1.00     1.00     1.00     0.00    -32.37
   14    95.7261    1.00000      4.831   -139.491     1.00     1.00     1.00     0.00    -30.51
   15    95.7040    1.00000      6.995   -129.081     1.00     1.00     1.00     0.00    -28.31
   16    95.7010    1.00000      6.045   -134.064     1.00     1.00     1.00     0.00    -26.37
   17    95.6996    1.00000      5.776    -96.572     1.00     1.00     1.00     0.00    -24.25
   18    95.6475    1.00000     10.392   -151.131     1.00     1.00     1.00     0.00    -22.43
   19    95.6924    1.00000      9.331    -87.995     1.00     1.00     1.00     0.00    -20.55
   20    95.7097    1.00000      8.270   -119.882     1.00     1.00     1.00     0.00    -18.48
   21    95.6498    1.00000      5.779    -97.201     1.00     1.00     1.00     0.00    -16.33
   22    95.6722    1.00000      7.513    -96.933     1.00     1.00     1.00     0.00    -14.46
   23    95.6806    1.00000      7.139    -80.555     1.00     1.00     1.00     0.00    -12.48
   24    95.6867    1.00000      6.220    -91.370     1.00     1.00     1.00     0.00    -10.42
   25    95.6916    1.00000      2.613    -60.160     1.00     1.00     1.00     0.00     -8.47
   26    95.6807    1.00000     -3.874    -65.704     1.00     1.00     1.00     0.00     -6.43
   27    95.6817    1.00000      7.260    -85.643     1.00     1.00     1.00     0.00     -4.46
   28    95.6803    1.00000     -1.402    -52.190     1.00     1.00     1.00     0.00     -2.45
   29    95.6826    1.00000      0.015     -0.021     1.00     1.00     1.00     0.00     -0.42
   30    95.6780    1.00000     -5.126    -44.040     1.00     1.00     1.00     0.00      1.57
   31    95.6828    1.00000     -5.863    -52.975     1.00     1.00     1.00     0.00      3.59
   32    95.6775    1.00000      3.358    -21.333     1.00     1.00     1.00     0.00      5.54
   33    95.6708    1.00000     -9.135    -56.445     1.00     1.00     1.00     0.00      7.48
   34    95.6826    1.00000      3.525    -20.494     1.00     1.00     1.00     0.00      9.70
   35    95.6720    1.00000    -11.189    -23.962     1.00     1.00     1.00     0.00     11.58
   36    95.6896    1.00000      2.112    -14.589     1.00     1.00     1.00     0.00     13.60
   37    95.7053    1.00000    -10.929    -24.233     1.00     1.00     1.00     0.00     15.70
   38    95.6451    1.00000     -0.214     14.104     1.00     1.00     1.00     0.00     17.67
   39    95.6898    1.00000    -17.406      8.651     1.00     1.00     1.00     0.00     19.51
   40    95.6717    1.00000     -0.505     16.530     1.00     1.00     1.00     0.00     21.63
   41    95.7002    1.00000    -22.609     42.445     1.00     1.00     1.00     0.00     23.54
   42    95.6959    1.00000     -5.879     51.426     1.00     1.00     1.00     0.00     25.63
   43    95.6258    1.00000    -27.962     83.701     1.00     1.00     1.00     0.00     27.57
   44    95.8343    1.00000    -20.149     70.458     1.00     1.00     1.00     0.00     29.64
   45    95.7874    1.00000    -25.681     62.779     1.00     1.00     1.00     0.00     31.71
   46    95.6978    1.00000    -14.905     97.833     1.00     1.00     1.00     0.00     33.58
   47    95.6195    1.00000    -22.888     64.487     1.00     1.00     1.00     0.00     35.61
   48    95.6824    1.00000    -16.782     68.653     1.00     1.00     1.00     0.00     37.51
   49    95.5854    1.00000    -17.188     21.268     1.00     1.00     1.00     0.00     39.62
   50    95.6568    1.00000    -20.269     80.330     1.00     1.00     1.00     0.00     41.53
   51    95.6920    1.00000    -25.169     74.083     1.00     1.00     1.00     0.00     43.56
   52    95.7684    1.00000    -23.726     52.691     1.00     1.00     1.00     0.00     45.63
   53    95.9102    1.00000    -32.363     53.734     1.00     1.00     1.00     0.00     47.57
   54    95.8515    1.00000    -16.265      2.918     1.00     1.00     1.00     0.00     49.61
   55    95.7063    1.00000    -29.931     39.918     1.00     1.00     1.00     0.00     51.66
