# AreTomo Alignment / Priims bprmMn
# RawSize = 4096 4096 55
# NumPatches = 0
# AlphaOffset =    13.50
# BetaOffset =     0.00
# Thickness = 2240
# SEC     ROT         GMAG       TX          TY      SMEAN     SFIT    SCALE     BASE     TILT
    1    96.9041    1.00000    -29.902    118.375     1.00     1.00     1.00     0.00    -50.65
    2    96.9143    1.00000    -16.870     85.198     1.00     1.00     1.00     0.00    -48.58
    3    96.9405    1.00000    -28.852    103.383     1.00     1.00     1.00     0.00    -46.25
    4    97.0803    1.00000    -11.650     71.611     1.00     1.00     1.00     0.00    -44.50
    5    97.1129    1.00000    -19.890     92.329     1.00     1.00     1.00     0.00    -42.33
    6    97.1327    1.00000     -4.853     33.844     1.00     1.00     1.00     0.00    -40.32
    7    97.1609    1.00000    -15.444     49.851     1.00     1.00     1.00     0.00    -38.29
    8    97.0614    1.00000      2.893     22.858     1.00     1.00     1.00     0.00    -36.52
    9    97.0822    1.00000    -13.938     44.849     1.00     1.00     1.00     0.00    -34.51
   10    97.0624    1.00000      4.182     21.372     1.00     1.00     1.00     0.00    -32.53
   11    97.0491    1.00000    -14.889     36.712     1.00     1.00     1.00     0.00    -30.53
   12    97.0554    1.00000      2.944     15.440     1.00     1.00     1.00     0.00    -28.58
   13    97.0186    1.00000     -8.623     36.465     1.00     1.00     1.00     0.00    -26.56
   14    97.0452    1.00000      7.258     13.681     1.00     1.00     1.00     0.00    -24.50
   15    97.0140    1.00000     -2.788     31.358     1.00     1.00     1.00     0.00    -22.58
   16    97.0148    1.00000      5.663      9.050     1.00     1.00     1.00     0.00    -20.52
   17    97.0003    1.00000     -3.321     18.695     1.00     1.00     1.00     0.00    -18.65
   18    97.0104    1.00000      5.236      7.138     1.00     1.00     1.00     0.00    -16.55
   19    96.9937    1.00000     -2.236     27.288     1.00     1.00     1.00     0.00    -14.60
   20    96.9833    1.00000      3.331     -2.809     1.00     1.00     1.00     0.00    -12.52
   21    96.9792    1.00000      0.785     14.950     1.00     1.00     1.00     0.00    -10.58
   22    96.9724    1.00000      1.678    -10.588     1.00     1.00     1.00     0.00     -8.51
   23    96.9673    1.00000     -0.559      8.663     1.00     1.00     1.00     0.00     -6.48
   24    96.9533    1.00000      1.889      4.505     1.00     1.00     1.00     0.00     -4.46
   25    96.9520    1.00000     -1.483      1.575     1.00     1.00     1.00     0.00     -2.45
   26    96.9537    1.00000      0.077     -0.052     1.00     1.00     1.00     0.00     -0.46
   27    96.9515    1.00000     -7.925     -8.339     1.00     1.00     1.00     0.00      1.53
   28    96.9518    1.00000      6.604      0.187     1.00     1.00     1.00     0.00      3.53
   29    96.9501    1.00000     -3.029     18.627     1.00     1.00     1.00     0.00      5.53
   30    96.9491    1.00000      1.866      7.419     1.00     1.00     1.00     0.00      7.52
   31    96.9491    1.00000      7.339    -12.242     1.00     1.00     1.00     0.00      9.52
   32    96.9487    1.00000      5.382     17.814     1.00     1.00     1.00     0.00     11.52
   33    96.9506    1.00000      8.545    -18.771     1.00     1.00     1.00     0.00     13.50
   34    96.9353    1.00000     10.659      9.125     1.00     1.00     1.00     0.00     15.46
   35    96.9419    1.00000      7.053    -24.107     1.00     1.00     1.00     0.00     17.51
   36    96.9410    1.00000     12.112     10.984     1.00     1.00     1.00     0.00     19.39
   37    96.9564    1.00000      3.358    -33.332     1.00     1.00     1.00     0.00     21.45
   38    96.9451    1.00000     12.986     -1.546     1.00     1.00     1.00     0.00     23.37
   39    96.9882    1.00000      0.960    -37.243     1.00     1.00     1.00     0.00     25.48
   40    96.9407    1.00000     13.196     -0.903     1.00     1.00     1.00     0.00     27.52
   41    96.9206    1.00000     -3.910    -45.558     1.00     1.00     1.00     0.00     29.48
   42    96.9149    1.00000     17.368    -12.757     1.00     1.00     1.00     0.00     31.48
   43    96.9148    1.00000     -8.915    -50.789     1.00     1.00     1.00     0.00     33.49
   44    96.9430    1.00000     19.432    -30.723     1.00     1.00     1.00     0.00     35.55
   45    96.9304    1.00000     -7.439    -56.519     1.00     1.00     1.00     0.00     37.58
   46    96.9425    1.00000     17.002    -35.561     1.00     1.00     1.00     0.00     39.45
   47    96.9338    1.00000    -24.349    -71.792     1.00     1.00     1.00     0.00     41.47
   48    96.8276    1.00000     32.812    -37.330     1.00     1.00     1.00     0.00     43.41
   49    96.8846    1.00000     -9.388    -82.365     1.00     1.00     1.00     0.00     45.54
   50    97.0989    1.00000     21.851    -56.344     1.00     1.00     1.00     0.00     47.55
   51    96.7338    1.00000    -12.876    -83.616     1.00     1.00     1.00     0.00     49.58
   52    97.0387    1.00000     18.433    -69.758     1.00     1.00     1.00     0.00     51.33
   53    96.7965    1.00000     -8.204   -109.591     1.00     1.00     1.00     0.00     53.48
   54    96.9043    1.00000     14.678    -80.381     1.00     1.00     1.00     0.00     55.51
   55    97.0336    1.00000    -10.385   -117.654     1.00     1.00     1.00     0.00     57.70
