# AreTomo Alignment / Priims bprmMn
# RawSize = 4096 4096 55
# NumPatches = 0
# DarkFrame =     0    1   -52.50
# DarkFrame =     1    2   -50.50
# DarkFrame =     2    3   -48.50
# DarkFrame =     3    4   -46.50
# DarkFrame =     4    5   -44.50
# DarkFrame =     5    6   -42.50
# DarkFrame =     6    7   -40.50
# DarkFrame =     7    8   -38.51
# DarkFrame =     8    9   -36.51
# DarkFrame =     9   10   -34.51
# DarkFrame =    10   11   -32.51
# DarkFrame =    11   12   -30.51
# DarkFrame =    12   13   -28.51
# DarkFrame =    13   14   -26.51
# DarkFrame =    14   15   -24.51
# DarkFrame =    15   16   -22.51
# DarkFrame =    16   17   -20.51
# DarkFrame =    17   18   -18.51
# DarkFrame =    54   55    55.50
# AlphaOffset =    11.50
# BetaOffset =     0.00
# Thickness = 1770
# SEC     ROT         GMAG       TX          TY      SMEAN     SFIT    SCALE     BASE     TILT
   19    95.9694    1.00000     -0.069     -8.212     1.00     1.00     1.00     0.00    -16.36
   20    95.9790    1.00000     10.112    -26.761     1.00     1.00     1.00     0.00    -14.36
   21    95.9625    1.00000      3.344     -7.804     1.00     1.00     1.00     0.00    -12.35
   22    95.9628    1.00000      6.168    -17.687     1.00     1.00     1.00     0.00    -10.36
   23    95.9618    1.00000      2.744     -7.449     1.00     1.00     1.00     0.00     -8.48
   24    95.9659    1.00000      6.909    -11.913     1.00     1.00     1.00     0.00     -6.48
   25    95.9646    1.00000      3.319     -8.345     1.00     1.00     1.00     0.00     -4.48
   26    95.9698    1.00000      8.603    -16.485     1.00     1.00     1.00     0.00     -2.46
   27    95.9725    1.00000      0.135      0.011     1.00     1.00     1.00     0.00     -0.49
   28    95.9730    1.00000     13.940     -4.366     1.00     1.00     1.00     0.00      1.50
   29    95.9736    1.00000      8.435      0.262     1.00     1.00     1.00     0.00      3.49
   30    95.9710    1.00000     11.581     13.489     1.00     1.00     1.00     0.00      5.46
   31    95.9750    1.00000     13.604     11.132     1.00     1.00     1.00     0.00      7.46
   32    95.9724    1.00000     13.749     31.929     1.00     1.00     1.00     0.00      9.46
   33    95.9594    1.00000     13.562     11.759     1.00     1.00     1.00     0.00     11.70
   34    96.0112    1.00000     16.723     34.516     1.00     1.00     1.00     0.00     13.27
   35    95.9844    1.00000     12.446      1.675     1.00     1.00     1.00     0.00     15.40
   36    95.9712    1.00000     16.939     37.753     1.00     1.00     1.00     0.00     17.40
   37    95.9731    1.00000      8.096      9.830     1.00     1.00     1.00     0.00     19.43
   38    95.9732    1.00000     15.695     38.957     1.00     1.00     1.00     0.00     21.43
   39    95.9792    1.00000      4.305      1.606     1.00     1.00     1.00     0.00     23.45
   40    95.9702    1.00000     13.591     45.774     1.00     1.00     1.00     0.00     25.43
   41    95.9825    1.00000      0.472      3.112     1.00     1.00     1.00     0.00     27.46
   42    95.9881    1.00000     12.088     53.534     1.00     1.00     1.00     0.00     29.46
   43    95.9885    1.00000      0.206      5.305     1.00     1.00     1.00     0.00     31.46
   44    95.9453    1.00000     14.094     52.764     1.00     1.00     1.00     0.00     33.44
   45    95.9397    1.00000     -0.532     14.463     1.00     1.00     1.00     0.00     35.45
   46    95.9540    1.00000     17.812     51.704     1.00     1.00     1.00     0.00     37.44
   47    95.9466    1.00000     -3.190     16.824     1.00     1.00     1.00     0.00     39.42
   48    95.9415    1.00000     16.613     43.869     1.00     1.00     1.00     0.00     41.46
   49    95.9875    1.00000     -2.189     20.008     1.00     1.00     1.00     0.00     43.45
   50    95.9175    1.00000     21.573     38.320     1.00     1.00     1.00     0.00     45.44
   51    95.9732    1.00000     -4.640     27.963     1.00     1.00     1.00     0.00     47.42
   52    95.8890    1.00000     33.156     59.833     1.00     1.00     1.00     0.00     49.49
   53    96.0010    1.00000    -19.594    -11.594     1.00     1.00     1.00     0.00     51.45
   54    95.9520    1.00000     37.127     15.836     1.00     1.00     1.00     0.00     53.43
