# AreTomo Alignment / Priims bprmMn
# RawSize = 4096 4096 55
# NumPatches = 0
# AlphaOffset =    10.40
# BetaOffset =     0.00
# Thickness = 1980
# SEC     ROT         GMAG       TX          TY      SMEAN     SFIT    SCALE     BASE     TILT
    1    95.0923    1.00000    -12.066    -12.741     1.00     1.00     1.00     0.00    -53.72
    2    95.1711    1.00000     -3.603    -32.901     1.00     1.00     1.00     0.00    -51.46
    3    95.0742    1.00000    -11.977    -12.430     1.00     1.00     1.00     0.00    -49.76
    4    95.1331    1.00000     -3.589    -30.797     1.00     1.00     1.00     0.00    -47.62
    5    95.0577    1.00000     -9.998     -6.218     1.00     1.00     1.00     0.00    -45.65
    6    95.1924    1.00000     -1.801    -32.379     1.00     1.00     1.00     0.00    -43.62
    7    95.1873    1.00000    -12.463     -7.449     1.00     1.00     1.00     0.00    -41.57
    8    95.0799    1.00000      0.093    -30.694     1.00     1.00     1.00     0.00    -39.58
    9    95.2466    1.00000     -8.671    -11.730     1.00     1.00     1.00     0.00    -37.62
   10    95.1419    1.00000      2.675    -27.176     1.00     1.00     1.00     0.00    -35.60
   11    95.2007    1.00000    -10.566     -6.935     1.00     1.00     1.00     0.00    -33.74
   12    95.1649    1.00000      4.386    -27.731     1.00     1.00     1.00     0.00    -31.52
   13    95.1912    1.00000     -4.201     -0.731     1.00     1.00     1.00     0.00    -29.54
   14    95.1881    1.00000      3.764    -30.514     1.00     1.00     1.00     0.00    -27.84
   15    95.2163    1.00000     -4.566     -5.664     1.00     1.00     1.00     0.00    -25.84
   16    95.2379    1.00000      3.718    -25.574     1.00     1.00     1.00     0.00    -23.79
   17    95.2161    1.00000      3.381     -7.317     1.00     1.00     1.00     0.00    -21.84
   18    95.2132    1.00000      0.228    -30.317     1.00     1.00     1.00     0.00    -19.79
   19    95.2135    1.00000     -3.446     -5.162     1.00     1.00     1.00     0.00    -17.73
   20    95.1716    1.00000      1.951    -29.193     1.00     1.00     1.00     0.00    -15.58
   21    95.1768    1.00000      2.445    -12.014     1.00     1.00     1.00     0.00    -13.60
   22    95.1547    1.00000     -1.432    -27.519     1.00     1.00     1.00     0.00    -11.54
   23    95.1682    1.00000      0.990    -14.531     1.00     1.00     1.00     0.00     -9.52
   24    95.1543    1.00000     -0.693    -16.279     1.00     1.00     1.00     0.00     -7.47
   25    95.1612    1.00000      1.244    -12.432     1.00     1.00     1.00     0.00     -5.53
   26    95.1581    1.00000     -3.136    -13.697     1.00     1.00     1.00     0.00     -3.40
   27    95.1593    1.00000     -0.089    -14.320     1.00     1.00     1.00     0.00     -1.39
   28    95.1567    1.00000      0.257      0.027     1.00     1.00     1.00     0.00      0.63
   29    95.1635    1.00000     -0.116      8.581     1.00     1.00     1.00     0.00      2.58
   30    95.1657    1.00000      2.318     22.769     1.00     1.00     1.00     0.00      4.57
   31    95.1601    1.00000      0.441      7.109     1.00     1.00     1.00     0.00      6.60
   32    95.1597    1.00000      6.169     32.772     1.00     1.00     1.00     0.00      8.50
   33    95.1532    1.00000      0.464      2.609     1.00     1.00     1.00     0.00     10.54
   34    95.1503    1.00000     13.217     22.962     1.00     1.00     1.00     0.00     12.46
   35    95.1379    1.00000     -3.159      5.673     1.00     1.00     1.00     0.00     14.45
   36    95.1335    1.00000     11.094     30.860     1.00     1.00     1.00     0.00     16.36
   37    95.1402    1.00000     -3.365      6.089     1.00     1.00     1.00     0.00     18.46
   38    95.1458    1.00000     18.790     24.581     1.00     1.00     1.00     0.00     20.28
   39    95.1554    1.00000    -12.848     11.257     1.00     1.00     1.00     0.00     22.37
   40    95.1456    1.00000      8.288     43.599     1.00     1.00     1.00     0.00     24.33
   41    95.1418    1.00000    -13.865     16.280     1.00     1.00     1.00     0.00     26.40
   42    95.1487    1.00000     12.127     42.614     1.00     1.00     1.00     0.00     28.31
   43    95.0955    1.00000    -19.733     33.583     1.00     1.00     1.00     0.00     30.37
   44    95.1953    1.00000     13.642     45.086     1.00     1.00     1.00     0.00     32.20
   45    95.1794    1.00000    -17.633     32.101     1.00     1.00     1.00     0.00     34.21
   46    95.1581    1.00000     12.914     47.019     1.00     1.00     1.00     0.00     36.23
   47    95.1327    1.00000    -16.959     25.441     1.00     1.00     1.00     0.00     38.27
   48    95.0369    1.00000     11.382     65.506     1.00     1.00     1.00     0.00     40.27
   49    95.1432    1.00000    -20.457     48.791     1.00     1.00     1.00     0.00     42.28
   50    95.0385    1.00000     11.984     57.910     1.00     1.00     1.00     0.00     44.17
   51    95.0372    1.00000    -21.295     47.677     1.00     1.00     1.00     0.00     46.17
   52    95.0282    1.00000      8.890     62.027     1.00     1.00     1.00     0.00     48.26
   53    95.1751    1.00000    -18.647     52.686     1.00     1.00     1.00     0.00     50.17
   54    94.9257    1.00000      5.597     68.008     1.00     1.00     1.00     0.00     52.28
   55    95.0328    1.00000    -25.079     60.424     1.00     1.00     1.00     0.00     54.15
