# AreTomo Alignment / Priims bprmMn
# RawSize = 4096 4096 55
# NumPatches = 0
# DarkFrame =     0    1   -55.80
# DarkFrame =    52   53    48.20
# DarkFrame =    53   54    50.19
# DarkFrame =    54   55    52.20
# AlphaOffset =     8.20
# BetaOffset =     0.00
# Thickness = 180
# SEC     ROT         GMAG       TX          TY      SMEAN     SFIT    SCALE     BASE     TILT
    2    95.4901    1.00000    153.018  -1419.431     1.00     1.00     1.00     0.00    -53.77
    3    95.1842    1.00000    147.602  -1374.712     1.00     1.00     1.00     0.00    -51.73
    4    95.3962    1.00000    145.895  -1321.318     1.00     1.00     1.00     0.00    -49.66
    5    95.2172    1.00000    139.661  -1288.708     1.00     1.00     1.00     0.00    -47.85
    6    95.2683    1.00000    135.875  -1263.927     1.00     1.00     1.00     0.00    -45.99
    7    95.4332    1.00000    131.273  -1203.435     1.00     1.00     1.00     0.00    -43.78
    8    95.3446    1.00000    129.214  -1170.864     1.00     1.00     1.00     0.00    -41.80
    9    95.2411    1.00000    127.022  -1122.201     1.00     1.00     1.00     0.00    -39.98
   10    95.3574    1.00000    120.704  -1078.528     1.00     1.00     1.00     0.00    -37.82
   11    95.4099    1.00000    112.821  -1042.825     1.00     1.00     1.00     0.00    -35.75
   12    95.3509    1.00000    109.231   -980.357     1.00     1.00     1.00     0.00    -33.82
   13    95.3678    1.00000     98.266   -911.708     1.00     1.00     1.00     0.00    -31.78
   14    95.3383    1.00000     97.493   -859.958     1.00     1.00     1.00     0.00    -29.75
   15    95.2877    1.00000     88.283   -791.252     1.00     1.00     1.00     0.00    -27.85
   16    95.3416    1.00000     90.674   -789.566     1.00     1.00     1.00     0.00    -25.68
   17    95.3329    1.00000     78.852   -719.423     1.00     1.00     1.00     0.00    -23.79
   18    95.3589    1.00000     77.543   -690.593     1.00     1.00     1.00     0.00    -21.76
   19    95.3505    1.00000     66.526   -621.216     1.00     1.00     1.00     0.00    -19.74
   20    95.2808    1.00000     68.697   -576.409     1.00     1.00     1.00     0.00    -17.85
   21    95.3002    1.00000     59.856   -496.020     1.00     1.00     1.00     0.00    -15.86
   22    95.3306    1.00000     42.409   -438.070     1.00     1.00     1.00     0.00    -13.81
   23    95.3561    1.00000     41.178   -359.611     1.00     1.00     1.00     0.00    -11.86
   24    95.3370    1.00000     32.300   -281.176     1.00     1.00     1.00     0.00     -9.79
   25    95.3385    1.00000     31.633   -244.443     1.00     1.00     1.00     0.00     -7.77
   26    95.3326    1.00000     21.325   -215.836     1.00     1.00     1.00     0.00     -5.84
   27    95.3332    1.00000      6.228   -103.732     1.00     1.00     1.00     0.00     -3.83
   28    95.3270    1.00000     10.926    -70.312     1.00     1.00     1.00     0.00     -1.81
   29    95.3335    1.00000      0.340     -0.229     1.00     1.00     1.00     0.00      0.17
   30    95.3277    1.00000     11.978     -3.593     1.00     1.00     1.00     0.00      2.16
   31    95.3238    1.00000      2.592    111.195     1.00     1.00     1.00     0.00      4.16
   32    95.3403    1.00000      3.321    180.880     1.00     1.00     1.00     0.00      6.18
   33    95.3459    1.00000     -4.587    229.197     1.00     1.00     1.00     0.00      8.28
   34    95.3101    1.00000     -2.511    287.898     1.00     1.00     1.00     0.00     10.21
   35    95.3623    1.00000    -16.117    357.265     1.00     1.00     1.00     0.00     12.33
   36    95.3259    1.00000     -6.579    420.691     1.00     1.00     1.00     0.00     14.14
   37    95.3220    1.00000    -29.047    475.167     1.00     1.00     1.00     0.00     16.17
   38    95.3496    1.00000    -18.202    565.464     1.00     1.00     1.00     0.00     18.24
   39    95.3616    1.00000    -46.601    637.213     1.00     1.00     1.00     0.00     20.31
   40    95.3041    1.00000    -33.578    689.877     1.00     1.00     1.00     0.00     22.40
   41    95.3652    1.00000    -57.419    731.130     1.00     1.00     1.00     0.00     24.25
   42    95.4486    1.00000    -37.645    813.599     1.00     1.00     1.00     0.00     26.44
   43    95.4034    1.00000    -77.383    854.178     1.00     1.00     1.00     0.00     28.25
   44    95.4129    1.00000    -50.508    920.727     1.00     1.00     1.00     0.00     30.08
   45    95.5385    1.00000    -76.566    968.899     1.00     1.00     1.00     0.00     32.39
   46    95.2702    1.00000    -69.739   1080.887     1.00     1.00     1.00     0.00     33.95
   47    95.3021    1.00000    -90.296   1109.575     1.00     1.00     1.00     0.00     36.48
   48    95.3383    1.00000    -72.546   1122.870     1.00     1.00     1.00     0.00     38.08
   49    95.2025    1.00000   -106.155   1227.893     1.00     1.00     1.00     0.00     40.22
   50    95.2354    1.00000    -81.336   1250.876     1.00     1.00     1.00     0.00     42.37
   51    95.1351    1.00000   -108.350   1293.472     1.00     1.00     1.00     0.00     44.28
   52    95.4841    1.00000    -96.471   1331.790     1.00     1.00     1.00     0.00     46.21
